# energy (keV)	err_energy (keV)	flux_data (ph cm^-2 s^-1 keV^-1)	err_flux (ph cm^-2 s^-1 keV^-1)		flux_model (ph cm^-2 s^-1 keV^-1)
0.50367099 2.55697966E-3 3.83235812E-2 5.53580292E-4 4.21195067E-2
0.50878346 2.55551934E-3 3.91048715E-2 5.55065228E-4 4.15982828E-2
0.513891995 2.55298615E-3 3.88690121E-2 5.55232749E-4 4.1077029E-2
0.518996477 2.55149603E-3 4.12354693E-2 5.72523626E-4 4.04935963E-2
0.524097443 2.54949927E-3 3.77830118E-2 5.35887142E-4 3.74494679E-2
0.529194951 2.54800916E-3 3.35929766E-2 4.6988792E-4 3.18663456E-2
0.534288526 2.54550576E-3 4.1547697E-2 5.80394117E-4 3.86428833E-2
0.539377987 2.54398584E-3 4.05281372E-2 5.62190078E-4 3.6197342E-2
0.544463992 2.54201889E-3 3.37559991E-2 4.60990792E-4 2.92466972E-2
0.549546003 2.53999233E-3 3.05106044E-2 4.19384858E-4 2.58720499E-2
0.554623961 2.53799558E-3 3.19045521E-2 4.3240891E-4 2.57538762E-2
0.559698462 2.53650546E-3 3.20313014E-2 4.4046421E-4 2.61324607E-2
0.564769506 2.53450871E-3 3.36190425E-2 4.50884225E-4 2.60270406E-2
0.569836497 2.53251195E-3 3.40509452E-2 4.51253523E-4 2.58556455E-2
0.574899554 2.53048539E-3 3.34620625E-2 4.52867855E-4 2.5731083E-2
0.579959035 2.52899528E-3 3.36711556E-2 4.54907335E-4 2.55728681E-2
0.585014999 2.52699852E-3 3.40640694E-2 4.55268309E-4 2.53557805E-2
0.590067506 2.5255084E-3 3.29721943E-2 4.44957172E-4 2.50908267E-2
0.595116496 2.52351165E-3 3.20794508E-2 4.35592665E-4 2.48078275E-2
0.600161552 2.52148509E-3 3.03705577E-2 4.25736769E-4 2.45162509E-2
0.605203032 2.51999497E-3 3.01109944E-2 4.20602039E-4 2.42441017E-2
0.610240996 2.51799822E-3 2.88132317E-2 4.11476911E-4 2.39639264E-2
0.615275502 2.5165081E-3 2.80499831E-2 4.00628895E-4 2.36677974E-2
0.620307028 2.51501799E-3 2.66456939E-2 3.9290046E-4 2.33963337E-2
0.625334501 2.51245499E-3 2.62145773E-2 3.85217631E-4 2.31205709E-2
0.630358458 2.51153111E-3 2.55327057E-2 3.77883465E-4 2.2823466E-2
0.635379493 2.50947475E-3 2.45517604E-2 3.6873878E-4 2.25549173E-2
0.640396476 2.5075078E-3 2.42079049E-2 3.66478402E-4 2.22845562E-2
0.645410478 2.50649452E-3 2.28941683E-2 3.53373092E-4 2.19895616E-2
0.6504215 2.50452757E-3 2.248431E-2 3.50579881E-4 2.17256006E-2
0.655428529 2.50250101E-3 2.10929457E-2 3.40560509E-4 2.14611832E-2
0.660432518 2.50148773E-3 2.12978106E-2 3.3977229E-4 2.11709291E-2
0.665433526 2.49949098E-3 2.08298061E-2 3.32968135E-4 2.09128726E-2
0.670431018 2.49800086E-3 2.05186754E-2 3.32082884E-4 2.06546132E-2
0.675425529 2.49651074E-3 2.10988931E-2 3.31478484E-4 2.03712713E-2
0.680416524 2.49451399E-3 2.06058454E-2 3.27312271E-4 2.01200899E-2
0.685404539 2.49350071E-3 1.99485309E-2 3.20937892E-4 1.9867992E-2
0.690389514 2.49147415E-3 1.91340242E-2 3.1074151E-4 1.95933823E-2
0.695371032 2.49001384E-3 1.95880402E-2 3.14228411E-4 1.93497613E-2
0.700350046 2.48900056E-3 1.90077387E-2 3.06495669E-4 1.90993119E-2
0.705325961 2.486974E-3 1.8054964E-2 2.93716148E-4 1.81235112E-2
0.710298479 2.48551369E-3 1.66091733E-2 2.71386525E-4 1.658508E-2
0.715268493 2.48450041E-3 1.68380029E-2 2.83858593E-4 1.73836425E-2
0.720235467 2.48250365E-3 1.59474462E-2 2.67556607E-4 1.66867059E-2
0.725199521 2.48152018E-3 1.6013978E-2 2.72151781E-4 1.66779254E-2
0.730161011 2.47997046E-3 1.64655373E-2 2.74567545E-4 1.67589802E-2
0.735119462 2.47851014E-3 1.56096723E-2 2.68797681E-4 1.6588049E-2
0.740074992 2.47699022E-3 1.50995264E-2 2.6677319E-4 1.64075755E-2
0.745027483 2.47550011E-3 1.53529765E-2 2.66821851E-4 1.62106659E-2
0.749977469 2.47451663E-3 1.44998478E-2 2.56909989E-4 1.60088837E-2
0.754925013 2.47299671E-3 1.42897554E-2 2.54528713E-4 1.58212036E-2
0.759869993 2.47198343E-3 1.44630857E-2 2.56194529E-4 1.56196924E-2
0.764812469 2.47052312E-3 1.38819525E-2 2.47665303E-4 1.54265845E-2
0.769752026 2.4690032E-3 1.36653911E-2 2.47726886E-4 1.52448704E-2
0.774689019 2.46798992E-3 1.31149776E-2 2.40155452E-4 1.50457127E-2
0.779623508 2.46649981E-3 1.28451083E-2 2.37114524E-4 1.48631809E-2
0.784555495 2.46548653E-3 1.31923612E-2 2.40318332E-4 1.46876592E-2
0.789484978 2.46399641E-3 1.26032885E-2 2.37428118E-4 1.44907441E-2
0.794412017 2.46301293E-3 1.23437326E-2 2.34101739E-4 1.43184802E-2
0.799337029 2.46199965E-3 1.23491576E-2 2.31113765E-4 1.4141703E-2
0.804259479 2.46047974E-3 1.24068009E-2 2.30204969E-4 1.39509477E-2
0.809180021 2.4600327E-3 1.20264255E-2 2.28456411E-4 1.37826633E-2
0.814098477 2.45848298E-3 1.19578242E-2 2.27303652E-4 1.36070251E-2
0.819014013 2.45702267E-3 1.17139909E-2 2.21589245E-4 1.34297516E-2
0.823927522 2.45645642E-3 1.18552297E-2 2.24279574E-4 1.32683907E-2
0.828838944 2.45502591E-3 1.15310857E-2 2.22880306E-4 1.30945817E-2
0.833747983 2.45401263E-3 1.15117878E-2 2.21299211E-4 1.29299406E-2
0.838655531 2.45350599E-3 1.12772994E-2 2.18111498E-4 1.27752433E-2
0.843561053 2.45198607E-3 1.09563228E-2 2.13535022E-4 1.2603092E-2
0.848464012 2.4509728E-3 1.0736906E-2 2.13410327E-4 1.2450804E-2
0.853364944 2.45001912E-3 1.08686909E-2 2.13462976E-4 1.22990487E-2
0.858264506 2.44951248E-3 1.08496025E-2 2.12551982E-4 1.2094276E-2
0.863162041 2.44799256E-3 1.04275029E-2 2.09721693E-4 1.19251991E-2
0.868057489 2.44748592E-3 1.03415567E-2 2.05466888E-4 1.16567332E-2
0.872951508 2.44653225E-3 1.0080195E-2 2.02848925E-4 1.13103064E-2
0.877843499 2.44548917E-3 9.81415994E-3 1.97755289E-4 1.11570954E-2
0.882733464 2.44447589E-3 9.93059762E-3 1.97555433E-4 1.10134427E-2
0.887621999 2.44399905E-3 9.78081767E-3 1.96531066E-4 1.08831925E-2
0.892508984 2.44301558E-3 1.01368483E-2 1.9958787E-4 1.07585583E-2
0.897394001 2.4420023E-3 9.54105146E-3 1.94986365E-4 1.06192566E-2
0.90227747 2.44149566E-3 9.45346616E-3 1.93465923E-4 1.0498981E-2
0.907159448 2.44048238E-3 9.71223786E-3 1.97274901E-4 1.03739621E-2
0.912039995 2.44000554E-3 9.33207572E-3 1.92539024E-4 1.02458075E-2
0.916918993 2.43899226E-3 9.2640128E-3 1.92494728E-4 1.01304352E-2
0.921796441 2.43851542E-3 8.91377218E-3 1.86642748E-4 1.00050662E-2
0.926672995 2.43800879E-3 9.18391626E-3 1.90345105E-4 9.88759659E-3
0.931547999 2.43699551E-3 8.97196308E-3 1.86169738E-4 9.77671146E-3
0.936421037 2.43601203E-3 8.98256432E-3 1.88347374E-4 9.65148862E-3
0.941293001 2.43598223E-3 9.06160474E-3 1.88307618E-4 9.54398792E-3
0.946164012 2.43499875E-3 8.73813126E-3 1.8667242E-4 9.43223946E-3
0.951033473 2.43452191E-3 8.55618063E-3 1.81806041E-4 9.31756292E-3
0.95590198 2.43398547E-3 8.29243753E-3 1.7955924E-4 9.21449624E-3
0.960768998 2.433002E-3 8.57010111E-3 1.81003023E-4 9.10201482E-3
0.965635002 2.433002E-3 8.27956013E-3 1.76889138E-4 8.99737049E-3
0.970499992 2.43198872E-3 8.08698591E-3 1.7740039E-4 8.89762398E-3
0.975363493 2.43151188E-3 8.20593443E-3 1.78133661E-4 8.78627505E-3
0.980226517 2.43151188E-3 7.93356821E-3 1.72815824E-4 8.69027153E-3
0.985088468 2.4304688E-3 8.13729502E-3 1.74264787E-4 8.58940836E-3
0.989948988 2.43002176E-3 7.85964169E-3 1.71974534E-4 8.48781224E-3
0.994809031 2.42999196E-3 8.15502461E-3 1.7594987E-4 8.39571003E-3
0.999669492 2.4304986E-3 7.76805403E-3 1.72028624E-4 8.29385594E-3
1.00452995 2.43002176E-3 7.48011889E-3 1.67132996E-4 8.20142217E-3
1.00938499 2.42495537E-3 7.903005E-3 1.71552412E-4 8.11091345E-3
1.01424003 2.43002176E-3 7.30177388E-3 1.64930709E-4 8.01269989E-3
1.01909494 2.42501497E-3 7.27224909E-3 1.65087462E-4 7.92680588E-3
1.0239501 2.43002176E-3 7.3764259E-3 1.64094614E-4 7.83406384E-3
1.02880502 2.42495537E-3 7.13800872E-3 1.64253899E-4 7.74437329E-3
1.03365993 2.43002176E-3 6.90389518E-3 1.59836869E-4 7.66196148E-3
1.03851497 2.42495537E-3 7.27398926E-3 1.62764511E-4 7.56915566E-3
1.043365 2.42507458E-3 7.23674148E-3 1.63143646E-4 7.4882214E-3
1.04821503 2.42495537E-3 7.05534779E-3 1.58875016E-4 7.40541471E-3
1.05306506 2.42501497E-3 6.66568754E-3 1.56825001E-4 7.31926924E-3
1.05791497 2.42495537E-3 6.94948714E-3 1.59016607E-4 7.24246399E-3
1.06276488 2.42501497E-3 6.65088883E-3 1.55148358E-4 7.15838326E-3
1.06761503 2.42501497E-3 6.70974515E-3 1.57150265E-4 7.08024483E-3
1.07246494 2.42501497E-3 6.50933292E-3 1.54088833E-4 7.00536883E-3
1.07731509 2.42501497E-3 6.6060191E-3 1.54334062E-4 6.92196004E-3
1.082165 2.42495537E-3 6.59987377E-3 1.53316956E-4 6.84851315E-3
1.08701491 2.42501497E-3 6.47503417E-3 1.52084191E-4 6.77204551E-3
1.09186006 2.42000818E-3 6.23275433E-3 1.49784857E-4 6.69678394E-3
1.09670496 2.42501497E-3 6.08791225E-3 1.48515654E-4 6.62799366E-3
1.10155499 2.42495537E-3 6.04840321E-3 1.46607767E-4 6.55067246E-3
1.10640502 2.42501497E-3 5.98149234E-3 1.45237267E-4 6.48249453E-3
1.11124992 2.42000818E-3 5.87710226E-3 1.43512167E-4 6.41349377E-3
1.11609507 2.42501497E-3 6.29215082E-3 1.48154344E-4 6.34106435E-3
1.12094498 2.42501497E-3 5.79094747E-3 1.43803161E-4 6.27667177E-3
1.12579 2.41994858E-3 5.95034333E-3 1.45845872E-4 6.20646402E-3
1.13063502 2.42507458E-3 5.93383983E-3 1.44665464E-4 6.14078902E-3
1.13548005 2.41994858E-3 5.86163532E-3 1.44641221E-4 6.07816968E-3
1.14032507 2.42501497E-3 5.89758065E-3 1.43389057E-4 6.00851653E-3
1.14517498 2.42495537E-3 5.42363012E-3 1.3753213E-4 5.94830327E-3
1.15001988 2.42000818E-3 5.81367314E-3 1.42799297E-4 5.88445459E-3
1.15486503 2.42501497E-3 5.44019695E-3 1.40647811E-4 5.8211796E-3
1.15971494 2.42501497E-3 5.54920174E-3 1.38260191E-4 5.7632681E-3
1.16456008 2.42000818E-3 5.52562857E-3 1.38701187E-4 5.69837913E-3
1.16940498 2.42495537E-3 5.28964028E-3 1.3578494E-4 5.64107019E-3
1.17425501 2.42507458E-3 5.4590879E-3 1.37086332E-4 5.58299059E-3
1.17910004 2.41994858E-3 5.34963794E-3 1.36668765E-4 5.52198384E-3
1.18394494 2.42501497E-3 5.34492312E-3 1.34767761E-4 5.46787726E-3
1.18879497 2.42495537E-3 5.51621756E-3 1.37679628E-4 5.40872756E-3
1.19363999 2.42006779E-3 5.3153378E-3 1.35744485E-4 5.35338093E-3
1.19848514 2.42501497E-3 5.28027583E-3 1.3615402E-4 5.30067552E-3
1.20333505 2.42495537E-3 5.13350172E-3 1.33250142E-4 5.24186995E-3
1.20818496 2.42501497E-3 5.0798296E-3 1.31896988E-4 5.19111706E-3
1.21303499 2.42495537E-3 5.00635011E-3 1.3020297E-4 5.13731828E-3
1.21788502 2.42507458E-3 4.65155113E-3 1.2861038E-4 5.08378446E-3
1.22273505 2.42495537E-3 4.90463804E-3 1.29016305E-4 5.03493054E-3
1.22758007 2.42000818E-3 4.51843906E-3 1.25546416E-4 4.98030055E-3
1.23242497 2.42495537E-3 4.86814464E-3 1.29552835E-4 4.93179355E-3
1.23727989 2.43002176E-3 4.88641439E-3 1.29056891E-4 4.88284975E-3
1.24213505 2.42501497E-3 4.7353697E-3 1.26452767E-4 4.83104819E-3
1.24698496 2.42501497E-3 4.52725496E-3 1.2421493E-4 4.78525646E-3
1.25183511 2.42501497E-3 4.57147276E-3 1.23652557E-4 4.73550754E-3
1.25668502 2.42495537E-3 4.82866028E-3 1.26812214E-4 4.68841521E-3
1.26153493 2.42501497E-3 4.83481213E-3 1.28671978E-4 4.64407727E-3
1.26638997 2.42996216E-3 4.59114742E-3 1.23685357E-4 4.59399633E-3
1.271245 2.42507458E-3 4.47701011E-3 1.21823978E-4 4.55096923E-3
1.27610004 2.42996216E-3 4.59778402E-3 1.24607977E-4 4.50574234E-3
1.28095508 2.42501497E-3 4.40476695E-3 1.21756886E-4 4.4599832E-3
1.28580999 2.42996216E-3 4.44615679E-3 1.22001591E-4 4.41853469E-3
1.29066491 2.42501497E-3 4.41735517E-3 1.23242382E-4 4.37261211E-3
1.29551995 2.42996216E-3 4.29931143E-3 1.1878959E-4 4.33092983E-3
1.30037999 2.43008137E-3 4.19824617E-3 1.20196302E-4 4.28991579E-3
1.30524004 2.42996216E-3 4.24810778E-3 1.19517397E-4 4.24540695E-3
1.31009507 2.42501497E-3 4.26220149E-3 1.19895201E-4 4.196072E-3
1.31494999 2.42996216E-3 4.14388347E-3 1.16501127E-4 4.14012605E-3
1.31980991 2.43002176E-3 4.23937943E-3 1.19003955E-4 4.09990223E-3
1.32467496 2.43496895E-3 4.07157419E-3 1.16508229E-4 4.06267215E-3
1.32954001 2.43002176E-3 4.08917898E-3 1.17272641E-4 4.02086088E-3
1.33439994 2.42996216E-3 4.03622258E-3 1.1555817E-4 3.98409832E-3
1.33925986 2.43002176E-3 4.18704422E-3 1.17990989E-4 3.94678349E-3
1.34412503 2.43502855E-3 3.87588656E-3 1.14051567E-4 3.9074407E-3
1.34898996 2.43002176E-3 3.85665661E-3 1.14260183E-4 3.87244346E-3
1.35385501 2.43496895E-3 3.92415281E-3 1.13347633E-4 3.83455073E-3
1.35872006 2.43002176E-3 4.07870812E-3 1.16606221E-4 3.79847339E-3
1.363585 2.43496895E-3 4.05952847E-3 1.15889059E-4 3.7647048E-3
1.36845493 2.43502855E-3 3.68619594E-3 1.10851099E-4 3.72635457E-3
1.37331998 2.42996216E-3 3.59055796E-3 1.09379624E-4 3.69333965E-3
1.37818503 2.43502855E-3 3.75220366E-3 1.13635848E-4 3.65911168E-3
1.38305497 2.43496895E-3 3.79275251E-3 1.13530659E-4 3.62368417E-3
1.38792992 2.44003534E-3 3.70900566E-3 1.1058175E-4 3.59180896E-3
1.39280498 2.43496895E-3 3.68687417E-3 1.0960301E-4 3.55713023E-3
1.39767504 2.43502855E-3 3.49848578E-3 1.07248787E-4 3.52453883E-3
1.40254498 2.43496895E-3 3.49406502E-3 1.07329826E-4 3.49373906E-3
1.40741992 2.44003534E-3 3.46453069E-3 1.07484077E-4 3.4588757E-3
1.41229498 2.43496895E-3 3.41129326E-3 1.05858388E-4 3.42885754E-3
1.41717005 2.44003534E-3 3.25471861E-3 1.05321269E-4 3.39761656E-3
1.42205 2.43997574E-3 3.43482196E-3 1.0810743E-4 3.36540118E-3
1.42692494 2.43502855E-3 3.35724908E-3 1.0786645E-4 3.33642098E-3
1.43180001 2.43997574E-3 3.41615197E-3 1.05630963E-4 3.30485636E-3
1.43668008 2.44003534E-3 3.36964009E-3 1.05934239E-4 3.27515998E-3
1.44156003 2.43997574E-3 3.2983718E-3 1.05549807E-4 3.24712414E-3
1.44643998 2.43997574E-3 3.2821428E-3 1.04163126E-4 3.21530551E-3
1.45132494 2.44504213E-3 3.20910802E-3 1.03673803E-4 3.18790926E-3
1.45621002 2.43997574E-3 3.30672646E-3 1.07320157E-4 3.15954955E-3
1.46109509 2.44504213E-3 3.07913171E-3 1.04606384E-4 3.13005014E-3
1.46598005 2.43997574E-3 2.91286549E-3 1.01883452E-4 3.10357544E-3
1.47086501 2.44504213E-3 3.08025861E-3 1.02946979E-4 3.07498965E-3
1.47574997 2.43991613E-3 3.24874953E-3 1.06178668E-4 3.04768095E-3
1.48063493 2.44498253E-3 3.00106406E-3 1.04458879E-4 3.02209449E-3
1.48552489 2.44504213E-3 3.13074444E-3 1.04066516E-4 2.99332221E-3
1.49041498 2.44498253E-3 2.77005881E-3 9.90137778E-5 2.96803983E-3
1.49530506 2.44504213E-3 2.7822461E-3 9.94076399E-5 2.94246431E-3
1.50019503 2.44498253E-3 3.12377699E-3 1.03514154E-4 2.91522243E-3
1.50509 2.44998932E-3 2.93643819E-3 1.01491889E-4 2.89100432E-3
1.50998497 2.44504213E-3 3.14506795E-3 1.03643149E-4 2.86525558E-3
1.51487994 2.44992971E-3 2.88956333E-3 1.00065881E-4 2.83990894E-3
1.51977491 2.44504213E-3 2.95091211E-3 1.00463541E-4 2.81649409E-3
1.52467 2.44998932E-3 2.80834641E-3 9.8610195E-5 2.7906422E-3
1.52956998 2.44998932E-3 2.92805815E-3 9.86641462E-5 2.76706531E-3
1.53447008 2.45004892E-3 2.78046983E-3 9.71658155E-5 2.74414802E-3
1.53937006 2.44992971E-3 2.63952324E-3 9.4464478E-5 2.7187278E-3
1.54427004 2.45004892E-3 2.8081038E-3 1.0168914E-4 2.69674766E-3
1.54917002 2.44998932E-3 2.71192426E-3 9.52965929E-5 2.67374353E-3
1.55407 2.44998932E-3 2.63932091E-3 9.48942106E-5 2.6504132E-3
1.55897498 2.45505571E-3 2.73269461E-3 9.71030749E-5 2.62783025E-3
1.56387997 2.44992971E-3 2.58607441E-3 9.4235118E-5 2.60546478E-3
1.56878495 2.45499611E-3 2.7063603E-3 9.44167768E-5 2.5824958E-3
1.57368994 2.45004892E-3 2.74087908E-3 9.57651428E-5 2.56060273E-3
1.57859504 2.45499611E-3 2.61084223E-3 9.44513595E-5 2.53901188E-3
1.58350492 2.4549365E-3 2.67238542E-3 9.31412651E-5 2.5176038E-3
1.58841491 2.45505571E-3 2.64592981E-3 9.54796487E-5 2.49642227E-3
1.59332502 2.45499611E-3 2.50131241E-3 9.16423887E-5 2.47551571E-3
1.59823489 2.4549365E-3 2.7290876E-3 9.46977743E-5 2.45291507E-3
1.60314488 2.45505571E-3 2.44232337E-3 9.0950125E-5 2.42816657E-3
1.60806 2.4600029E-3 2.61279824E-3 9.34013005E-5 2.40930333E-3
1.612975 2.45499611E-3 2.52506626E-3 9.15162454E-5 2.40463088E-3
1.61789 2.4600029E-3 2.3096134E-3 8.92218959E-5 2.35594856E-3
1.622805 2.45499611E-3 2.52425275E-3 9.22590698E-5 2.35594856E-3
1.62772 2.4600029E-3 2.54679634E-3 9.27041256E-5 2.35380488E-3
1.63264 2.4600029E-3 2.19492917E-3 8.46322291E-5 2.29736022E-3
1.63756001 2.4600029E-3 2.37848191E-3 8.92930111E-5 2.29736022E-3
1.6424799 2.45994329E-3 2.33249576E-3 8.85319678E-5 2.29736022E-3
1.6473999 2.4600625E-3 2.34549912E-3 8.99465449E-5 2.241357E-3
1.65232003 2.4600029E-3 2.33158516E-3 8.72715318E-5 2.24066456E-3
1.65723991 2.45994329E-3 2.45248852E-3 9.04633853E-5 2.24066456E-3
1.66216493 2.46506929E-3 2.30127689E-3 8.67990311E-5 2.1891275E-3
1.66709006 2.4600029E-3 2.25734641E-3 8.63621608E-5 2.18578754E-3
1.67201495 2.46495008E-3 2.34188722E-3 8.8805944E-5 2.18578754E-3
1.67693996 2.4600029E-3 2.22203135E-3 8.65999828E-5 2.13827402E-3
1.68186498 2.46500969E-3 2.18497892E-3 8.49693606E-5 2.13265885E-3
1.686795 2.46500969E-3 2.22781347E-3 8.67040653E-5 2.13265885E-3
1.69172502 2.46495008E-3 2.15049135E-3 8.39934946E-5 2.08893395E-3
1.69665504 2.46506929E-3 2.31486326E-3 8.64711692E-5 2.08121096E-3
1.70158505 2.46500969E-3 2.10370799E-3 8.36859108E-5 2.08121096E-3
1.70651507 2.46495008E-3 1.94460072E-3 8.09393096E-5 2.0455888E-3
1.71144497 2.46500969E-3 2.22315709E-3 8.57012419E-5 2.03708606E-3
1.71638 2.47001648E-3 2.140444E-3 8.58842322E-5 2.02468783E-3
1.72131503 2.46500969E-3 2.16175895E-3 8.36582039E-5 2.00436777E-3
1.72624993 2.46995687E-3 2.19341042E-3 8.38321575E-5 1.98700582E-3
1.73118496 2.46500969E-3 2.08330271E-3 8.338302E-5 1.97141431E-3
1.73611999 2.47001648E-3 2.21516495E-3 8.4153995E-5 1.95598556E-3
1.74106002 2.47001648E-3 1.99405546E-3 8.26217074E-5 1.94069813E-3
1.74600005 2.46995687E-3 2.06097844E-3 8.26417963E-5 1.92556763E-3
1.75093997 2.47001648E-3 2.11303891E-3 8.40773209E-5 1.91059173E-3
1.75588 2.47001648E-3 2.08833138E-3 8.21664871E-5 1.89576857E-3
1.76082003 2.47001648E-3 1.96867832E-3 8.02938594E-5 1.88109616E-3
1.76575994 2.46995687E-3 1.9392441E-3 8.0484424E-5 1.866573E-3
1.77069998 2.47001648E-3 2.00832868E-3 8.1701728E-5 1.85219699E-3
1.77564001 2.47001648E-3 1.94002385E-3 8.01368369E-5 1.83796615E-3
1.78058505 2.47502327E-3 2.02318234E-3 7.98413166E-5 1.82386208E-3
1.78553009 2.46995687E-3 2.08040467E-3 8.25448515E-5 1.80990505E-3
1.79047489 2.47496367E-3 1.96038303E-3 8.01717615E-5 1.79605524E-3
1.79542494 2.47508287E-3 1.81533198E-3 7.68682075E-5 1.78236107E-3
1.80036998 2.46995687E-3 1.71214412E-3 7.47772065E-5 1.76881556E-3
1.80531502 2.47502327E-3 1.8683892E-3 8.03529692E-5 1.75540976E-3
1.81026506 2.47496367E-3 1.99957355E-3 8.10347192E-5 1.74212188E-3
1.81521487 2.47496367E-3 1.99323636E-3 8.12958315E-5 1.72896637E-3
1.82016492 2.47508287E-3 1.96661404E-3 8.11158898E-5 1.71594124E-3
1.82511497 2.47496367E-3 2.00141012E-3 8.22702059E-5 1.7030451E-3
1.83007002 2.48003006E-3 1.86792284E-3 8.00239577E-5 1.69026398E-3
1.83502507 2.47496367E-3 1.91093364E-3 7.99387417E-5 1.67760823E-3
1.83997488 2.47496367E-3 1.83382712E-3 7.84084332E-5 1.66509044E-3
1.84492993 2.48008966E-3 1.81476737E-3 7.92993233E-5 1.65027974E-3
1.84988499 2.47496367E-3 1.75003987E-3 7.91652128E-5 1.63421629E-3
1.85484004 2.47997046E-3 1.71055179E-3 7.78179819E-5 1.62213098E-3
1.85979497 2.47502327E-3 1.68172969E-3 7.88074321E-5 1.61016465E-3
1.86474991 2.47997046E-3 1.77632959E-3 7.93907093E-5 1.5983124E-3
1.86970997 2.48003006E-3 1.6037703E-3 7.77634341E-5 1.58656412E-3
1.87466502 2.47502327E-3 1.7703349E-3 8.00546186E-5 1.57494261E-3
1.87962008 2.47997046E-3 1.60790479E-3 7.75349326E-5 1.5634303E-3
1.88458002 2.48003006E-3 1.89296796E-3 8.3225983E-5 1.55201869E-3
1.88953996 2.47997046E-3 1.7060088E-3 7.82893549E-5 1.54071674E-3
1.89450002 2.47997046E-3 1.62992754E-3 7.77484165E-5 1.52951432E-3
1.89945996 2.48003006E-3 1.69817195E-3 7.79600814E-5 1.51841913E-3
1.90442502 2.48503685E-3 1.48054631E-3 7.34167406E-5 1.50642614E-3
1.90938997 2.47997046E-3 1.78349309E-3 7.95684318E-5 1.49159052E-3
1.91435003 2.47997046E-3 1.66683935E-3 7.76483939E-5 1.48600945E-3
1.91931498 2.48503685E-3 1.63617078E-3 7.8274119E-5 1.47577026E-3
1.92427993 2.47997046E-3 1.46897987E-3 7.31514447E-5 1.45773846E-3
1.929245 2.48503685E-3 1.41606422E-3 7.4057949E-5 1.45773846E-3
1.93421006 2.47997046E-3 1.7175863E-3 7.86983364E-5 1.44711742E-3
1.93917501 2.48503685E-3 1.60803052E-3 7.92240244E-5 1.42656767E-3
1.94413996 2.47997046E-3 1.52915833E-3 7.68309183E-5 1.42656767E-3
1.94910502 2.48497725E-3 1.49011542E-3 7.60968469E-5 1.4168761E-3
1.95407498 2.48503685E-3 1.52647484E-3 7.42644042E-5 1.39627198E-3
1.95904493 2.48497725E-3 1.44662964E-3 7.52309425E-5 1.39627198E-3
